! time    log(Av)    log(n)    log(T)   
! (yr)   (mag)      (cm-3)    (K)      
0.000e+00 -1.231e+00 1.813e+00 1.698e+00
2.360e-01 -1.233e+00 1.758e+00 1.712e+00
4.710e-01 -1.260e+00 1.704e+00 1.736e+00
7.070e-01 -1.294e+00 1.655e+00 1.760e+00
9.430e-01 -1.312e+00 1.627e+00 1.777e+00
1.178e+00 -1.314e+00 1.622e+00 1.782e+00
1.414e+00 -1.305e+00 1.636e+00 1.778e+00
1.650e+00 -1.287e+00 1.662e+00 1.767e+00
1.885e+00 -1.263e+00 1.696e+00 1.751e+00
2.121e+00 -1.237e+00 1.734e+00 1.734e+00
2.357e+00 -1.212e+00 1.769e+00 1.718e+00
2.592e+00 -1.192e+00 1.799e+00 1.704e+00
2.828e+00 -1.177e+00 1.821e+00 1.693e+00
3.064e+00 -1.167e+00 1.836e+00 1.687e+00
3.299e+00 -1.163e+00 1.842e+00 1.683e+00
3.535e+00 -1.163e+00 1.843e+00 1.682e+00
3.771e+00 -1.166e+00 1.839e+00 1.683e+00
4.006e+00 -1.172e+00 1.831e+00 1.686e+00
4.242e+00 -1.180e+00 1.820e+00 1.690e+00
4.478e+00 -1.189e+00 1.807e+00 1.696e+00
4.713e+00 -1.199e+00 1.793e+00 1.701e+00
4.949e+00 -1.209e+00 1.777e+00 1.708e+00
5.185e+00 -1.221e+00 1.760e+00 1.715e+00
5.420e+00 -1.233e+00 1.742e+00 1.723e+00
5.656e+00 -1.246e+00 1.724e+00 1.731e+00
5.892e+00 -1.258e+00 1.705e+00 1.740e+00
6.127e+00 -1.272e+00 1.685e+00 1.749e+00
6.363e+00 -1.285e+00 1.665e+00 1.758e+00
6.599e+00 -1.300e+00 1.643e+00 1.769e+00
6.834e+00 -1.316e+00 1.620e+00 1.780e+00
7.070e+00 -1.333e+00 1.595e+00 1.792e+00
7.306e+00 -1.350e+00 1.570e+00 1.805e+00
7.541e+00 -1.367e+00 1.544e+00 1.818e+00
7.777e+00 -1.385e+00 1.519e+00 1.832e+00
8.013e+00 -1.401e+00 1.493e+00 1.846e+00
8.248e+00 -1.417e+00 1.469e+00 1.859e+00
8.484e+00 -1.432e+00 1.447e+00 1.872e+00
8.720e+00 -1.445e+00 1.426e+00 1.885e+00
8.955e+00 -1.457e+00 1.408e+00 1.896e+00
9.191e+00 -1.467e+00 1.392e+00 1.906e+00
9.427e+00 -1.477e+00 1.377e+00 1.915e+00
9.662e+00 -1.487e+00 1.363e+00 1.924e+00
9.898e+00 -1.498e+00 1.346e+00 1.934e+00
1.013e+01 -1.511e+00 1.327e+00 1.946e+00
1.037e+01 -1.526e+00 1.305e+00 1.959e+00
1.061e+01 -1.542e+00 1.282e+00 1.975e+00
1.084e+01 -1.557e+00 1.260e+00 1.990e+00
1.108e+01 -1.570e+00 1.241e+00 2.004e+00
1.131e+01 -1.581e+00 1.225e+00 2.016e+00
1.155e+01 -1.589e+00 1.212e+00 2.026e+00
1.178e+01 -1.597e+00 1.201e+00 2.035e+00
1.202e+01 -1.602e+00 1.192e+00 2.042e+00
1.226e+01 -1.607e+00 1.186e+00 2.047e+00
1.249e+01 -1.611e+00 1.180e+00 2.052e+00
1.273e+01 -1.614e+00 1.174e+00 2.056e+00
1.296e+01 -1.617e+00 1.169e+00 2.060e+00
1.320e+01 -1.620e+00 1.165e+00 2.064e+00
1.343e+01 -1.620e+00 1.164e+00 2.065e+00
1.367e+01 -1.619e+00 1.165e+00 2.065e+00
1.390e+01 -1.618e+00 1.167e+00 2.064e+00
1.414e+01 -1.616e+00 1.169e+00 2.062e+00
1.438e+01 -1.614e+00 1.171e+00 2.061e+00
1.461e+01 -1.613e+00 1.172e+00 2.060e+00
1.485e+01 -1.614e+00 1.170e+00 2.060e+00
1.508e+01 -1.617e+00 1.166e+00 2.063e+00
1.532e+01 -1.623e+00 1.158e+00 2.068e+00
1.555e+01 -1.630e+00 1.147e+00 2.076e+00
1.579e+01 -1.639e+00 1.134e+00 2.085e+00
1.602e+01 -1.649e+00 1.119e+00 2.097e+00
1.626e+01 -1.659e+00 1.103e+00 2.110e+00
1.650e+01 -1.670e+00 1.087e+00 2.123e+00
1.673e+01 -1.681e+00 1.070e+00 2.137e+00
1.697e+01 -1.691e+00 1.054e+00 2.151e+00
1.720e+01 -1.700e+00 1.040e+00 2.164e+00
1.744e+01 -1.708e+00 1.028e+00 2.175e+00
1.768e+01 -1.714e+00 1.018e+00 2.185e+00
1.791e+01 -1.721e+00 1.009e+00 2.193e+00
1.815e+01 -1.729e+00 9.960e-01 2.204e+00
1.838e+01 -1.741e+00 9.790e-01 2.217e+00
1.862e+01 -1.756e+00 9.570e-01 2.236e+00
1.885e+01 -1.774e+00 9.300e-01 2.260e+00
1.909e+01 -1.795e+00 8.980e-01 2.290e+00
1.932e+01 -1.820e+00 8.610e-01 2.325e+00
1.956e+01 -1.847e+00 8.200e-01 2.366e+00
1.980e+01 -1.876e+00 7.750e-01 2.413e+00
2.003e+01 -1.906e+00 7.300e-01 2.463e+00
2.027e+01 -1.932e+00 6.890e-01 2.515e+00
2.050e+01 -1.953e+00 6.570e-01 2.562e+00
2.074e+01 -1.964e+00 6.380e-01 2.598e+00
2.097e+01 -1.969e+00 6.290e-01 2.621e+00
2.121e+01 -1.969e+00 6.280e-01 2.632e+00
2.145e+01 -1.968e+00 6.280e-01 2.635e+00
2.168e+01 -1.967e+00 6.270e-01 2.636e+00
2.192e+01 -1.965e+00 6.290e-01 2.636e+00
2.215e+01 -1.959e+00 6.370e-01 2.633e+00
2.239e+01 -1.949e+00 6.500e-01 2.622e+00
2.262e+01 -1.939e+00 6.650e-01 2.603e+00
2.286e+01 -1.928e+00 6.820e-01 2.582e+00
2.309e+01 -1.915e+00 7.000e-01 2.559e+00
2.333e+01 -1.903e+00 7.170e-01 2.535e+00
2.357e+01 -1.891e+00 7.340e-01 2.512e+00
2.380e+01 -1.877e+00 7.520e-01 2.489e+00
2.404e+01 -1.861e+00 7.710e-01 2.465e+00
2.427e+01 -1.845e+00 7.930e-01 2.440e+00
2.451e+01 -1.830e+00 8.140e-01 2.414e+00
2.475e+01 -1.814e+00 8.340e-01 2.390e+00
2.498e+01 -1.798e+00 8.560e-01 2.366e+00
2.522e+01 -1.781e+00 8.800e-01 2.340e+00
2.545e+01 -1.761e+00 9.080e-01 2.312e+00
2.569e+01 -1.741e+00 9.360e-01 2.281e+00
2.592e+01 -1.723e+00 9.610e-01 2.253e+00
2.616e+01 -1.708e+00 9.840e-01 2.229e+00
2.639e+01 -1.695e+00 1.003e+00 2.210e+00
2.663e+01 -1.683e+00 1.021e+00 2.193e+00
2.687e+01 -1.670e+00 1.040e+00 2.176e+00
2.710e+01 -1.656e+00 1.060e+00 2.158e+00
2.734e+01 -1.640e+00 1.084e+00 2.139e+00
2.757e+01 -1.622e+00 1.110e+00 2.117e+00
2.781e+01 -1.602e+00 1.139e+00 2.094e+00
2.804e+01 -1.581e+00 1.169e+00 2.070e+00
2.828e+01 -1.561e+00 1.199e+00 2.047e+00
2.852e+01 -1.543e+00 1.226e+00 2.026e+00
2.875e+01 -1.527e+00 1.250e+00 2.008e+00
2.899e+01 -1.512e+00 1.272e+00 1.992e+00
2.922e+01 -1.497e+00 1.293e+00 1.977e+00
2.946e+01 -1.482e+00 1.316e+00 1.962e+00
2.969e+01 -1.465e+00 1.340e+00 1.947e+00
2.993e+01 -1.448e+00 1.367e+00 1.930e+00
3.016e+01 -1.429e+00 1.396e+00 1.912e+00
3.040e+01 -1.408e+00 1.428e+00 1.893e+00
3.064e+01 -1.385e+00 1.462e+00 1.874e+00
3.087e+01 -1.360e+00 1.500e+00 1.853e+00
3.111e+01 -1.334e+00 1.539e+00 1.831e+00
3.134e+01 -1.309e+00 1.578e+00 1.811e+00
3.158e+01 -1.284e+00 1.616e+00 1.791e+00
3.182e+01 -1.258e+00 1.654e+00 1.773e+00
3.205e+01 -1.233e+00 1.692e+00 1.754e+00
3.229e+01 -1.207e+00 1.731e+00 1.736e+00
3.252e+01 -1.181e+00 1.769e+00 1.719e+00
3.276e+01 -1.158e+00 1.802e+00 1.703e+00
3.299e+01 -1.141e+00 1.828e+00 1.691e+00
3.323e+01 -1.129e+00 1.846e+00 1.683e+00
3.346e+01 -1.121e+00 1.859e+00 1.677e+00
3.370e+01 -1.116e+00 1.867e+00 1.673e+00
3.394e+01 -1.113e+00 1.872e+00 1.671e+00
3.417e+01 -1.110e+00 1.878e+00 1.669e+00
3.441e+01 -1.106e+00 1.884e+00 1.666e+00
3.464e+01 -1.102e+00 1.892e+00 1.663e+00
3.488e+01 -1.097e+00 1.900e+00 1.660e+00
3.511e+01 -1.091e+00 1.909e+00 1.656e+00
3.535e+01 -1.085e+00 1.919e+00 1.653e+00
3.559e+01 -1.080e+00 1.928e+00 1.649e+00
3.582e+01 -1.075e+00 1.936e+00 1.646e+00
3.606e+01 -1.070e+00 1.943e+00 1.643e+00
3.629e+01 -1.067e+00 1.949e+00 1.641e+00
3.653e+01 -1.065e+00 1.953e+00 1.639e+00
3.676e+01 -1.063e+00 1.955e+00 1.638e+00
3.700e+01 -1.062e+00 1.957e+00 1.637e+00
3.723e+01 -1.061e+00 1.958e+00 1.637e+00
3.747e+01 -1.061e+00 1.957e+00 1.637e+00
3.771e+01 -1.062e+00 1.956e+00 1.637e+00
3.794e+01 -1.064e+00 1.952e+00 1.638e+00
3.818e+01 -1.069e+00 1.946e+00 1.640e+00
3.841e+01 -1.075e+00 1.937e+00 1.643e+00
3.865e+01 -1.085e+00 1.922e+00 1.648e+00
3.888e+01 -1.099e+00 1.903e+00 1.656e+00
3.912e+01 -1.116e+00 1.877e+00 1.665e+00
3.936e+01 -1.137e+00 1.848e+00 1.676e+00
3.959e+01 -1.159e+00 1.815e+00 1.690e+00
3.983e+01 -1.181e+00 1.781e+00 1.704e+00
4.006e+01 -1.202e+00 1.748e+00 1.719e+00
4.030e+01 -1.222e+00 1.717e+00 1.733e+00
4.053e+01 -1.239e+00 1.690e+00 1.746e+00
4.077e+01 -1.255e+00 1.665e+00 1.758e+00
4.101e+01 -1.268e+00 1.644e+00 1.768e+00
4.124e+01 -1.280e+00 1.625e+00 1.778e+00
4.148e+01 -1.290e+00 1.609e+00 1.786e+00
4.171e+01 -1.299e+00 1.594e+00 1.794e+00
4.195e+01 -1.308e+00 1.580e+00 1.801e+00
4.218e+01 -1.316e+00 1.567e+00 1.808e+00
4.242e+01 -1.325e+00 1.553e+00 1.815e+00
4.266e+01 -1.334e+00 1.539e+00 1.822e+00
4.289e+01 -1.344e+00 1.524e+00 1.830e+00
4.313e+01 -1.354e+00 1.509e+00 1.838e+00
4.336e+01 -1.364e+00 1.495e+00 1.847e+00
4.360e+01 -1.373e+00 1.482e+00 1.854e+00
4.383e+01 -1.379e+00 1.473e+00 1.860e+00
4.407e+01 -1.378e+00 1.474e+00 1.862e+00
4.430e+01 -1.365e+00 1.492e+00 1.856e+00
4.454e+01 -1.341e+00 1.527e+00 1.839e+00
4.478e+01 -1.320e+00 1.561e+00 1.819e+00
4.501e+01 -1.307e+00 1.583e+00 1.805e+00
4.525e+01 -1.301e+00 1.593e+00 1.798e+00
4.548e+01 -1.297e+00 1.601e+00 1.795e+00
4.572e+01 -1.289e+00 1.614e+00 1.790e+00
4.595e+01 -1.273e+00 1.639e+00 1.780e+00
4.619e+01 -1.248e+00 1.676e+00 1.764e+00
4.643e+01 -1.208e+00 1.738e+00 1.738e+00
4.666e+01 -1.106e+00 1.887e+00 1.687e+00
4.690e+01 -8.660e-01 2.257e+00 1.563e+00
4.713e+01 -7.280e-01 2.476e+00 1.480e+00
4.737e+01 -6.380e-01 2.613e+00 1.441e+00
4.760e+01 -5.300e-01 2.773e+00 1.401e+00
4.784e+01 -4.320e-01 2.915e+00 1.365e+00
4.808e+01 -3.940e-01 2.969e+00 1.349e+00
4.831e+01 -4.510e-01 2.885e+00 1.364e+00
4.855e+01 -5.320e-01 2.762e+00 1.388e+00
4.878e+01 -6.030e-01 2.652e+00 1.416e+00
4.902e+01 -6.200e-01 2.623e+00 1.431e+00
4.925e+01 -6.160e-01 2.634e+00 1.429e+00
4.949e+01 -6.280e-01 2.622e+00 1.429e+00
4.973e+01 -6.500e-01 2.593e+00 1.436e+00
4.996e+01 -6.830e-01 2.548e+00 1.446e+00
5.020e+01 -7.200e-01 2.498e+00 1.460e+00
5.043e+01 -7.390e-01 2.471e+00 1.469e+00
5.067e+01 -7.490e-01 2.456e+00 1.473e+00
5.090e+01 -7.650e-01 2.432e+00 1.480e+00
5.114e+01 -7.790e-01 2.413e+00 1.486e+00
5.138e+01 -8.010e-01 2.383e+00 1.493e+00
5.161e+01 -8.360e-01 2.334e+00 1.506e+00
5.185e+01 -8.650e-01 2.291e+00 1.520e+00
5.208e+01 -8.960e-01 2.245e+00 1.533e+00
5.232e+01 -9.200e-01 2.209e+00 1.546e+00
5.255e+01 -9.400e-01 2.180e+00 1.556e+00
5.279e+01 -9.570e-01 2.155e+00 1.564e+00
5.302e+01 -9.670e-01 2.136e+00 1.573e+00
5.326e+01 -9.650e-01 2.139e+00 1.571e+00
5.350e+01 -9.820e-01 2.114e+00 1.577e+00
5.373e+01 -9.940e-01 2.097e+00 1.585e+00
5.397e+01 -1.024e+00 2.058e+00 1.594e+00
